Zeit (s)	Istwert	P	I	D	Regelausgang	Sollwert
255.486000	59.541967	2.290164	0.000000	-0.000000	2.290164	60.000000
255.387000	59.518724	2.406378	0.000000	-0.000000	2.406378	60.000000
255.282000	59.492829	2.535855	0.000000	-0.000000	2.535855	60.000000
255.184000	59.466573	2.667135	0.000000	-0.000000	2.667135	60.000000
255.079000	59.459209	2.703953	0.000000	-0.000000	2.703953	60.000000
254.977000	59.447493	2.762536	0.000000	-0.000000	2.762536	60.000000
254.885000	59.445385	2.773077	0.000000	0.000000	2.773077	60.000000
254.780000	59.454734	2.726329	0.000000	0.000000	2.726329	60.000000
254.680000	59.468924	2.655381	0.000000	0.000000	2.655381	60.000000
254.578000	59.483231	2.583844	0.000000	0.000000	2.583844	60.000000
254.472000	59.503451	2.482743	0.000000	0.000000	2.482743	60.000000
254.375000	59.527413	2.362935	0.000000	0.000000	2.362935	60.000000
254.273000	59.558617	2.206913	0.000000	0.000000	2.206913	60.000000
254.168000	59.595981	2.020093	0.000000	0.000000	2.020093	60.000000
254.069000	59.632924	1.835379	0.000000	0.000000	1.835379	60.000000
253.963000	59.677657	1.611715	0.000000	0.000000	1.611715	60.000000
253.866000	59.716406	1.417969	0.000000	0.000000	1.417969	60.000000
253.768000	59.761553	1.192233	0.000000	0.000000	1.192233	60.000000
253.665000	59.809481	0.952597	0.000000	0.000000	0.952597	60.000000
253.566000	59.865619	0.671905	0.000000	0.000000	0.671905	60.000000
253.466000	59.914449	0.427756	0.000000	0.000000	0.427756	60.000000
253.365000	59.956278	0.218609	0.000000	0.000000	0.218609	60.000000
253.262000	59.989240	0.053802	0.000000	0.000000	0.053802	60.000000
253.157000	60.023104	-0.115522	0.000000	0.000000	-0.115522	60.000000
253.068000	60.052413	-0.262065	0.000000	0.000000	-0.262065	60.000000
252.943000	60.092318	-0.461590	0.000000	0.000000	-0.461590	60.000000
252.822000	60.118902	-0.594512	0.000000	0.000000	-0.594512	60.000000
252.700000	60.152691	-0.763453	0.000000	0.000000	-0.763453	60.000000
252.593000	60.179757	-0.898783	0.000000	0.000000	-0.898783	60.000000
252.486000	60.203064	-1.015321	0.000000	0.000000	-1.015321	60.000000
252.374000	60.224265	-1.121325	0.000000	0.000000	-1.121325	60.000000
252.274000	60.234126	-1.170628	0.000000	0.000000	-1.170628	60.000000
252.151000	60.238433	-1.192165	0.000000	-0.000000	-1.192165	60.000000
252.024000	60.235398	-1.176991	0.000000	0.000000	-1.176991	60.000000
251.901000	60.247940	-1.239699	0.000000	0.000000	-1.239699	60.000000
251.780000	60.257686	-1.288430	0.000000	-0.000000	-1.288430	60.000000
251.657000	60.250116	-1.250582	0.000000	-0.000000	-1.250582	60.000000
251.551000	60.233278	-1.166390	0.000000	-0.000000	-1.166390	60.000000
251.448000	60.212757	-1.063783	0.000000	-0.000000	-1.063783	60.000000
251.333000	60.175573	-0.877865	0.000000	-0.000000	-0.877865	60.000000
251.227000	60.138159	-0.690797	0.000000	-0.000000	-0.690797	60.000000
251.112000	60.105582	-0.527910	0.000000	-0.000000	-0.527910	60.000000
251.008000	60.069549	-0.347743	0.000000	-0.000000	-0.347743	60.000000
250.884000	60.017966	-0.089828	0.000000	-0.000000	-0.089828	60.000000
250.765000	59.959721	0.201396	0.000000	-0.000000	0.201396	60.000000
250.638000	59.899964	0.500179	0.000000	-0.000000	0.500179	60.000000
250.520000	59.848298	0.758509	0.000000	-0.000000	0.758509	60.000000
250.406000	59.791496	1.042520	0.000000	-0.000000	1.042520	60.000000
250.308000	59.744412	1.277938	0.000000	-0.000000	1.277938	60.000000
250.191000	59.688401	1.557993	0.000000	-0.000000	1.557993	60.000000
250.074000	59.640771	1.796147	0.000000	-0.000000	1.796147	60.000000
249.956000	59.596046	2.019771	0.000000	-0.000000	2.019771	60.000000
249.831000	59.552461	2.237696	0.000000	-0.000000	2.237696	60.000000
249.726000	59.523307	2.383466	0.000000	-0.000000	2.383466	60.000000
249.622000	59.502066	2.489670	0.000000	-0.000000	2.489670	60.000000
249.501000	59.489392	2.553040	0.000000	-0.000000	2.553040	60.000000
249.377000	59.484615	2.576924	0.000000	0.000000	2.576924	60.000000
249.277000	59.491979	2.540106	0.000000	0.000000	2.540106	60.000000
249.152000	59.494216	2.528922	0.000000	0.000000	2.528922	60.000000
249.031000	59.510635	2.446824	0.000000	0.000000	2.446824	60.000000
248.918000	59.536288	2.318560	0.000000	0.000000	2.318560	60.000000
248.823000	59.556504	2.217480	0.000000	0.000000	2.217480	60.000000
248.717000	59.581441	2.092797	0.000000	0.000000	2.092797	60.000000
248.595000	59.615481	1.922593	0.000000	0.000000	1.922593	60.000000
248.469000	59.662261	1.688697	0.000000	0.000000	1.688697	60.000000
248.346000	59.707413	1.462934	0.000000	0.000000	1.462934	60.000000
248.235000	59.754670	1.226650	0.000000	0.000000	1.226650	60.000000
248.096000	59.811836	0.940822	0.000000	0.000000	0.940822	60.000000
247.974000	59.862535	0.687327	0.000000	0.000000	0.687327	60.000000
247.858000	59.910521	0.447396	0.000000	0.000000	0.447396	60.000000
247.717000	59.965094	0.174529	0.000000	0.000000	0.174529	60.000000
247.599000	60.015054	-0.075272	0.000000	0.000000	-0.075272	60.000000
247.500000	60.042855	-0.214275	0.000000	0.000000	-0.214275	60.000000
247.388000	60.080092	-0.400462	0.000000	0.000000	-0.400462	60.000000
247.285000	60.120475	-0.602375	0.000000	0.000000	-0.602375	60.000000
247.177000	60.165341	-0.826706	0.000000	0.000000	-0.826706	60.000000
247.063000	60.196529	-0.982645	0.000000	0.000000	-0.982645	60.000000
246.955000	60.230863	-1.154317	0.000000	0.000000	-1.154317	60.000000
246.834000	60.253446	-1.267229	0.000000	0.000000	-1.267229	60.000000
246.720000	60.270280	-1.351400	0.000000	0.000000	-1.351400	60.000000
246.606000	60.280443	-1.402216	0.000000	0.000000	-1.402216	60.000000
246.511000	60.288260	-1.441302	0.000000	-0.000000	-1.441302	60.000000
246.321000	60.284082	-1.420411	0.000000	-0.000000	-1.420411	60.000000
246.220000	60.280519	-1.402593	0.000000	-0.000000	-1.402593	60.000000
246.123000	60.268219	-1.341096	0.000000	-0.000000	-1.341096	60.000000
246.026000	60.261621	-1.308104	0.000000	-0.000000	-1.308104	60.000000
245.923000	60.247508	-1.237540	0.000000	-0.000000	-1.237540	60.000000
245.824000	60.231708	-1.158541	0.000000	-0.000000	-1.158541	60.000000
245.716000	60.206945	-1.034726	0.000000	-0.000000	-1.034726	60.000000
245.618000	60.181510	-0.907548	0.000000	-0.000000	-0.907548	60.000000
245.517000	60.150688	-0.753438	0.000000	-0.000000	-0.753438	60.000000
245.413000	60.116294	-0.581470	0.000000	-0.000000	-0.581470	60.000000
245.316000	60.080087	-0.400435	0.000000	-0.000000	-0.400435	60.000000
245.209000	60.030923	-0.154614	0.000000	-0.000000	-0.154614	60.000000
245.110000	59.987070	0.064651	0.000000	-0.000000	0.064651	60.000000
245.015000	59.935941	0.320293	0.000000	-0.000000	0.320293	60.000000
244.916000	59.888492	0.557542	0.000000	-0.000000	0.557542	60.000000
244.813000	59.833450	0.832748	0.000000	-0.000000	0.832748	60.000000
244.716000	59.782624	1.086881	0.000000	-0.000000	1.086881	60.000000
244.548000	59.694726	1.526371	0.000000	-0.000000	1.526371	60.000000
244.444000	59.652781	1.736096	0.000000	-0.000000	1.736096	60.000000
244.340000	59.621279	1.893607	0.000000	-0.000000	1.893607	60.000000
244.238000	59.590491	2.047544	0.000000	-0.000000	2.047544	60.000000
244.137000	59.554938	2.225312	0.000000	-0.000000	2.225312	60.000000
244.035000	59.526206	2.368970	0.000000	-0.000000	2.368970	60.000000
243.934000	59.495487	2.522565	0.000000	-0.000000	2.522565	60.000000
243.834000	59.470379	2.648106	0.000000	-0.000000	2.648106	60.000000
243.732000	59.453234	2.733832	0.000000	-0.000000	2.733832	60.000000
243.637000	59.448580	2.757099	0.000000	-0.000000	2.757099	60.000000
243.530000	59.448039	2.759807	0.000000	0.000000	2.759807	60.000000
243.428000	59.450151	2.749247	0.000000	0.000000	2.749247	60.000000
243.330000	59.454803	2.725987	0.000000	0.000000	2.725987	60.000000
243.227000	59.478705	2.606474	0.000000	0.000000	2.606474	60.000000
243.125000	59.505142	2.474288	0.000000	0.000000	2.474288	60.000000
243.023000	59.538818	2.305908	0.000000	0.000000	2.305908	60.000000
242.920000	59.580106	2.099469	0.000000	0.000000	2.099469	60.000000
242.826000	59.613550	1.932249	0.000000	0.000000	1.932249	60.000000
242.730000	59.650128	1.749359	0.000000	0.000000	1.749359	60.000000
242.622000	59.693833	1.530837	0.000000	0.000000	1.530837	60.000000
242.526000	59.734815	1.325927	0.000000	0.000000	1.325927	60.000000
242.424000	59.771273	1.143634	0.000000	0.000000	1.143634	60.000000
242.321000	59.820706	0.896468	0.000000	0.000000	0.896468	60.000000
242.217000	59.854144	0.729281	0.000000	0.000000	0.729281	60.000000
242.120000	59.898941	0.505295	0.000000	0.000000	0.505295	60.000000
242.023000	59.940706	0.296469	0.000000	0.000000	0.296469	60.000000
241.922000	59.991231	0.043845	0.000000	0.000000	0.043845	60.000000
241.825000	60.021717	-0.108587	0.000000	0.000000	-0.108587	60.000000
241.720000	60.058175	-0.290873	0.000000	0.000000	-0.290873	60.000000
241.622000	60.090379	-0.451897	0.000000	0.000000	-0.451897	60.000000
241.521000	60.113633	-0.568166	0.000000	0.000000	-0.568166	60.000000
241.421000	60.132462	-0.662312	0.000000	0.000000	-0.662312	60.000000
241.325000	60.151663	-0.758314	0.000000	0.000000	-0.758314	60.000000
241.225000	60.177455	-0.887275	0.000000	0.000000	-0.887275	60.000000
241.124000	60.195496	-0.977479	0.000000	0.000000	-0.977479	60.000000
241.024000	60.214086	-1.070428	0.000000	0.000000	-1.070428	60.000000
240.926000	60.236131	-1.180657	0.000000	0.000000	-1.180657	60.000000
240.828000	60.252722	-1.263610	0.000000	0.000000	-1.263610	60.000000
240.731000	60.261681	-1.308407	0.000000	-0.000000	-1.308407	60.000000
240.635000	60.258712	-1.293562	0.000000	-0.000000	-1.293562	60.000000
240.534000	60.240725	-1.203626	0.000000	-0.000000	-1.203626	60.000000
240.431000	60.237092	-1.185459	0.000000	-0.000000	-1.185459	60.000000
240.338000	60.224443	-1.122213	0.000000	-0.000000	-1.122213	60.000000
240.240000	60.216634	-1.083168	0.000000	-0.000000	-1.083168	60.000000
240.137000	60.206517	-1.032587	0.000000	-0.000000	-1.032587	60.000000
240.011000	60.183751	-0.918753	0.000000	-0.000000	-0.918753	60.000000
239.914000	60.162675	-0.813375	0.000000	-0.000000	-0.813375	60.000000
239.810000	60.139974	-0.699871	0.000000	-0.000000	-0.699871	60.000000
239.707000	60.101638	-0.508188	0.000000	-0.000000	-0.508188	60.000000
239.540000	60.032499	-0.162497	0.000000	-0.000000	-0.162497	60.000000
239.433000	59.980909	0.095455	0.000000	-0.000000	0.095455	60.000000
239.327000	59.930691	0.346543	0.000000	-0.000000	0.346543	60.000000
239.227000	59.886683	0.566587	0.000000	-0.000000	0.566587	60.000000
239.124000	59.843410	0.782949	0.000000	-0.000000	0.782949	60.000000
239.019000	59.796200	1.018998	0.000000	-0.000000	1.018998	60.000000
238.915000	59.752802	1.235991	0.000000	-0.000000	1.235991	60.000000
238.812000	59.714596	1.427021	0.000000	-0.000000	1.427021	60.000000
238.716000	59.669930	1.650350	0.000000	-0.000000	1.650350	60.000000
238.610000	59.621696	1.891522	0.000000	-0.000000	1.891522	60.000000
238.508000	59.585116	2.074418	0.000000	-0.000000	2.074418	60.000000
238.409000	59.557354	2.213229	0.000000	-0.000000	2.213229	60.000000
238.305000	59.532302	2.338488	0.000000	-0.000000	2.338488	60.000000
238.138000	59.475740	2.621299	0.000000	-0.000000	2.621299	60.000000
238.036000	59.450753	2.746236	0.000000	-0.000000	2.746236	60.000000
237.938000	59.449723	2.751386	0.000000	0.000000	2.751386	60.000000
237.832000	59.450274	2.748630	0.000000	0.000000	2.748630	60.000000
237.731000	59.451477	2.742615	0.000000	0.000000	2.742615	60.000000
237.636000	59.454919	2.725403	0.000000	0.000000	2.725403	60.000000
237.536000	59.463794	2.681028	0.000000	0.000000	2.681028	60.000000
237.434000	59.472606	2.636969	0.000000	0.000000	2.636969	60.000000
237.336000	59.494092	2.529539	0.000000	0.000000	2.529539	60.000000
237.230000	59.536827	2.315865	0.000000	0.000000	2.315865	60.000000
237.126000	59.578481	2.107596	0.000000	0.000000	2.107596	60.000000
237.022000	59.620495	1.897523	0.000000	0.000000	1.897523	60.000000
236.919000	59.669564	1.652181	0.000000	0.000000	1.652181	60.000000
236.816000	59.712124	1.439379	0.000000	0.000000	1.439379	60.000000
236.710000	59.759140	1.204302	0.000000	0.000000	1.204302	60.000000
236.614000	59.803687	0.981563	0.000000	0.000000	0.981563	60.000000
236.511000	59.851135	0.744327	0.000000	0.000000	0.744327	60.000000
236.408000	59.900809	0.495955	0.000000	0.000000	0.495955	60.000000
236.315000	59.934788	0.326059	0.000000	0.000000	0.326059	60.000000
236.213000	59.979521	0.102395	0.000000	0.000000	0.102395	60.000000
236.114000	60.023831	-0.119154	0.000000	0.000000	-0.119154	60.000000
236.016000	60.056233	-0.281167	0.000000	0.000000	-0.281167	60.000000
235.917000	60.095292	-0.476461	0.000000	0.000000	-0.476461	60.000000
235.812000	60.132647	-0.663233	0.000000	0.000000	-0.663233	60.000000
235.715000	60.158927	-0.794635	0.000000	0.000000	-0.794635	60.000000
235.613000	60.179695	-0.898474	0.000000	0.000000	-0.898474	60.000000
235.514000	60.196951	-0.984757	0.000000	0.000000	-0.984757	60.000000
235.414000	60.211243	-1.056216	0.000000	0.000000	-1.056216	60.000000
235.316000	60.229409	-1.147046	0.000000	0.000000	-1.147046	60.000000
235.214000	60.246116	-1.230578	0.000000	0.000000	-1.230578	60.000000
235.104000	60.255266	-1.276329	0.000000	-0.000000	-1.276329	60.000000
235.001000	60.254105	-1.270525	0.000000	-0.000000	-1.270525	60.000000
234.895000	60.249452	-1.247259	0.000000	-0.000000	-1.247259	60.000000
234.790000	60.240853	-1.204265	0.000000	0.000000	-1.204265	60.000000
234.687000	60.241698	-1.208489	0.000000	0.000000	-1.208489	60.000000
234.581000	60.253322	-1.266610	0.000000	0.000000	-1.266610	60.000000
234.483000	60.255203	-1.276013	0.000000	-0.000000	-1.276013	60.000000
234.381000	60.241460	-1.207299	0.000000	-0.000000	-1.207299	60.000000
234.279000	60.225049	-1.125246	0.000000	-0.000000	-1.125246	60.000000
234.182000	60.195618	-0.978091	0.000000	-0.000000	-0.978091	60.000000
234.081000	60.159472	-0.797360	0.000000	-0.000000	-0.797360	60.000000
233.978000	60.116119	-0.580596	0.000000	-0.000000	-0.580596	60.000000
233.876000	60.073485	-0.367423	0.000000	-0.000000	-0.367423	60.000000
233.775000	60.026688	-0.133440	0.000000	-0.000000	-0.133440	60.000000
233.677000	59.981820	0.090902	0.000000	-0.000000	0.090902	60.000000
233.581000	59.946200	0.268998	0.000000	-0.000000	0.268998	60.000000
233.478000	59.919396	0.403021	0.000000	-0.000000	0.403021	60.000000
233.380000	59.872434	0.637829	0.000000	-0.000000	0.637829	60.000000
233.284000	59.825776	0.871122	0.000000	-0.000000	0.871122	60.000000
233.185000	59.773619	1.131906	0.000000	-0.000000	1.131906	60.000000
233.083000	59.725764	1.371180	0.000000	-0.000000	1.371180	60.000000
232.983000	59.688827	1.555867	0.000000	-0.000000	1.555867	60.000000
232.882000	59.651638	1.741809	0.000000	-0.000000	1.741809	60.000000
232.782000	59.608241	1.958795	0.000000	-0.000000	1.958795	60.000000
232.685000	59.569547	2.152265	0.000000	-0.000000	2.152265	60.000000
232.588000	59.542261	2.288696	0.000000	-0.000000	2.288696	60.000000
232.486000	59.517876	2.410622	0.000000	-0.000000	2.410622	60.000000
232.382000	59.500852	2.495738	0.000000	-0.000000	2.495738	60.000000
232.280000	59.486849	2.565753	0.000000	-0.000000	2.565753	60.000000
232.180000	59.478945	2.605273	0.000000	-0.000000	2.605273	60.000000
232.074000	59.472307	2.638464	0.000000	0.000000	2.638464	60.000000
231.971000	59.474177	2.629117	0.000000	0.000000	2.629117	60.000000
231.875000	59.481000	2.595001	0.000000	0.000000	2.595001	60.000000
231.773000	59.499235	2.503824	0.000000	0.000000	2.503824	60.000000
231.678000	59.525903	2.370485	0.000000	0.000000	2.370485	60.000000
231.578000	59.555116	2.224420	0.000000	0.000000	2.224420	60.000000
231.481000	59.587235	2.063824	0.000000	0.000000	2.063824	60.000000
231.377000	59.624410	1.877950	0.000000	0.000000	1.877950	60.000000
231.280000	59.652122	1.739388	0.000000	0.000000	1.739388	60.000000
231.180000	59.693285	1.533573	0.000000	0.000000	1.533573	60.000000
231.078000	59.735242	1.323788	0.000000	0.000000	1.323788	60.000000
230.981000	59.775134	1.124329	0.000000	0.000000	1.124329	60.000000
230.885000	59.815998	0.920010	0.000000	0.000000	0.920010	60.000000
230.786000	59.856985	0.715073	0.000000	0.000000	0.715073	60.000000
230.689000	59.896219	0.518906	0.000000	0.000000	0.518906	60.000000
230.590000	59.941311	0.293445	0.000000	0.000000	0.293445	60.000000
230.489000	59.978855	0.105727	0.000000	0.000000	0.105727	60.000000
230.387000	60.014215	-0.071075	0.000000	0.000000	-0.071075	60.000000
230.289000	60.048605	-0.243023	0.000000	0.000000	-0.243023	60.000000
230.192000	60.086806	-0.434032	0.000000	0.000000	-0.434032	60.000000
230.087000	60.113756	-0.568778	0.000000	0.000000	-0.568778	60.000000
229.992000	60.136097	-0.680486	0.000000	0.000000	-0.680486	60.000000
229.896000	60.156387	-0.781936	0.000000	0.000000	-0.781936	60.000000
229.800000	60.179874	-0.899369	0.000000	0.000000	-0.899369	60.000000
229.700000	60.197195	-0.985975	0.000000	0.000000	-0.985975	60.000000
229.599000	60.217477	-1.087385	0.000000	0.000000	-1.087385	60.000000
229.499000	60.229408	-1.147039	0.000000	0.000000	-1.147039	60.000000
229.400000	60.231411	-1.157054	0.000000	-0.000000	-1.157054	60.000000
229.303000	60.229347	-1.146737	0.000000	0.000000	-1.146737	60.000000
229.206000	60.234487	-1.172437	0.000000	0.000000	-1.172437	60.000000
229.106000	60.246783	-1.233914	0.000000	0.000000	-1.233914	60.000000
229.005000	60.253863	-1.269314	0.000000	0.000000	-1.269314	60.000000
228.906000	60.254410	-1.272052	0.000000	-0.000000	-1.272052	60.000000
228.802000	60.247147	-1.235737	0.000000	-0.000000	-1.235737	60.000000
228.700000	60.237580	-1.187901	0.000000	-0.000000	-1.187901	60.000000
228.591000	60.219114	-1.095571	0.000000	-0.000000	-1.095571	60.000000
228.489000	60.194767	-0.973834	0.000000	-0.000000	-0.973834	60.000000
228.396000	60.167223	-0.836116	0.000000	-0.000000	-0.836116	60.000000
228.296000	60.135672	-0.678360	0.000000	-0.000000	-0.678360	60.000000
228.128000	60.076342	-0.381710	0.000000	-0.000000	-0.381710	60.000000
228.030000	60.030868	-0.154339	0.000000	-0.000000	-0.154339	60.000000
227.929000	59.981876	0.090620	0.000000	-0.000000	0.090620	60.000000
227.828000	59.937756	0.311220	0.000000	-0.000000	0.311220	60.000000
227.734000	59.891453	0.542737	0.000000	-0.000000	0.542737	60.000000
227.631000	59.842742	0.786288	0.000000	-0.000000	0.786288	60.000000
227.524000	59.788235	1.058827	0.000000	-0.000000	1.058827	60.000000
227.427000	59.742181	1.289096	0.000000	-0.000000	1.289096	60.000000
227.325000	59.694432	1.527840	0.000000	-0.000000	1.527840	60.000000
227.227000	59.656892	1.715538	0.000000	-0.000000	1.715538	60.000000
227.127000	59.619644	1.901780	0.000000	-0.000000	1.901780	60.000000
227.026000	59.583070	2.084651	0.000000	-0.000000	2.084651	60.000000
226.927000	59.554577	2.227115	0.000000	-0.000000	2.227115	60.000000
226.830000	59.528624	2.356880	0.000000	-0.000000	2.356880	60.000000
226.725000	59.500437	2.497816	0.000000	-0.000000	2.497816	60.000000
226.628000	59.475135	2.624323	0.000000	-0.000000	2.624323	60.000000
226.523000	59.452929	2.735354	0.000000	-0.000000	2.735354	60.000000
226.421000	59.442965	2.785173	0.000000	0.000000	2.785173	60.000000
226.326000	59.446948	2.765259	0.000000	0.000000	2.765259	60.000000
226.227000	59.447494	2.762530	0.000000	0.000000	2.762530	60.000000
226.125000	59.451844	2.740778	0.000000	0.000000	2.740778	60.000000
226.028000	59.465424	2.672882	0.000000	0.000000	2.672882	60.000000
225.927000	59.489446	2.552772	0.000000	0.000000	2.552772	60.000000
225.826000	59.516783	2.416087	0.000000	0.000000	2.416087	60.000000
225.730000	59.550892	2.245541	0.000000	0.000000	2.245541	60.000000
225.638000	59.590069	2.049656	0.000000	0.000000	2.049656	60.000000
225.539000	59.632565	1.837176	0.000000	0.000000	1.837176	60.000000
225.436000	59.680487	1.597567	0.000000	0.000000	1.597567	60.000000
