Zeit (s)	Istwert	P	I	D	Regelausgang	Sollwert
73.497000	39.890854	0.392926	0.000000	-0.000000	0.392926	40.000000
73.396000	39.877062	0.442577	0.000000	-0.000000	0.442577	40.000000
73.293000	39.865712	0.483436	0.000000	-0.000000	0.483436	40.000000
73.195000	39.850953	0.536570	0.000000	-0.000000	0.536570	40.000000
73.096000	39.839188	0.578922	0.000000	-0.000000	0.578922	40.000000
72.994000	39.832778	0.602000	0.000000	-0.000000	0.602000	40.000000
72.895000	39.829714	0.613028	0.000000	-0.000000	0.613028	40.000000
72.795000	39.823770	0.634427	0.000000	-0.000000	0.634427	40.000000
72.696000	39.822452	0.639173	0.000000	-0.000000	0.639173	40.000000
72.596000	39.820412	0.646516	0.000000	-0.000000	0.646516	40.000000
72.498000	39.819031	0.651488	0.000000	-0.000000	0.651488	40.000000
72.394000	39.813692	0.670708	0.000000	-0.000000	0.670708	40.000000
72.294000	39.807512	0.692956	0.000000	-0.000000	0.692956	40.000000
72.193000	39.806253	0.697491	0.000000	-0.000000	0.697491	40.000000
72.095000	39.804453	0.703970	0.000000	0.000000	0.703970	40.000000
71.998000	39.807095	0.694458	0.000000	0.000000	0.694458	40.000000
71.896000	39.813028	0.673097	0.000000	0.000000	0.673097	40.000000
71.793000	39.822877	0.637642	0.000000	0.000000	0.637642	40.000000
71.696000	39.826470	0.624709	0.000000	0.000000	0.624709	40.000000
71.596000	39.833728	0.598578	0.000000	0.000000	0.598578	40.000000
71.494000	39.842617	0.566579	0.000000	0.000000	0.566579	40.000000
71.395000	39.850415	0.538504	0.000000	0.000000	0.538504	40.000000
71.301000	39.857491	0.513031	0.000000	0.000000	0.513031	40.000000
71.197000	39.869016	0.471544	0.000000	0.000000	0.471544	40.000000
71.101000	39.876750	0.443700	0.000000	0.000000	0.443700	40.000000
70.997000	39.889113	0.399194	0.000000	0.000000	0.399194	40.000000
70.894000	39.899320	0.362448	0.000000	0.000000	0.362448	40.000000
70.794000	39.912103	0.316430	0.000000	0.000000	0.316430	40.000000
70.693000	39.926017	0.266338	0.000000	0.000000	0.266338	40.000000
70.594000	39.926556	0.264399	0.000000	0.000000	0.264399	40.000000
70.493000	39.934118	0.237174	0.000000	0.000000	0.237174	40.000000
70.398000	39.936694	0.227902	0.000000	0.000000	0.227902	40.000000
70.306000	39.946901	0.191156	0.000000	0.000000	0.191156	40.000000
70.214000	39.952419	0.171293	0.000000	0.000000	0.171293	40.000000
70.098000	39.964961	0.126139	0.000000	0.000000	0.126139	40.000000
69.993000	39.972513	0.098953	0.000000	0.000000	0.098953	40.000000
69.894000	39.980377	0.070643	0.000000	0.000000	0.070643	40.000000
69.797000	39.985059	0.053789	0.000000	0.000000	0.053789	40.000000
69.699000	39.986558	0.048390	0.000000	0.000000	0.048390	40.000000
69.595000	39.986801	0.047517	0.000000	-0.000000	0.047517	40.000000
69.492000	39.984752	0.054893	0.000000	-0.000000	0.054893	40.000000
69.399000	39.982838	0.061785	0.000000	-0.000000	0.061785	40.000000
69.308000	39.979420	0.074089	0.000000	-0.000000	0.074089	40.000000
69.214000	39.975099	0.089643	0.000000	-0.000000	0.089643	40.000000
69.125000	39.970839	0.104980	0.000000	-0.000000	0.104980	40.000000
69.030000	39.964413	0.128112	0.000000	-0.000000	0.128112	40.000000
68.938000	39.958600	0.149040	0.000000	-0.000000	0.149040	40.000000
68.847000	39.950139	0.179500	0.000000	-0.000000	0.179500	40.000000
68.754000	39.942273	0.207819	0.000000	-0.000000	0.207819	40.000000
68.662000	39.937839	0.223780	0.000000	-0.000000	0.223780	40.000000
68.493000	39.926681	0.263948	0.000000	-0.000000	0.263948	40.000000
68.393000	39.919356	0.290318	0.000000	-0.000000	0.290318	40.000000
68.294000	39.909581	0.325510	0.000000	-0.000000	0.325510	40.000000
68.195000	39.901897	0.353171	0.000000	-0.000000	0.353171	40.000000
68.092000	39.890911	0.392720	0.000000	-0.000000	0.392720	40.000000
67.995000	39.876698	0.443887	0.000000	-0.000000	0.443887	40.000000
67.896000	39.867573	0.476736	0.000000	-0.000000	0.476736	40.000000
67.798000	39.861934	0.497036	0.000000	-0.000000	0.497036	40.000000
67.697000	39.856654	0.516045	0.000000	-0.000000	0.516045	40.000000
67.595000	39.853651	0.526857	0.000000	-0.000000	0.526857	40.000000
67.495000	39.849818	0.540654	0.000000	-0.000000	0.540654	40.000000
67.396000	39.842129	0.568335	0.000000	-0.000000	0.568335	40.000000
67.295000	39.838055	0.583001	0.000000	-0.000000	0.583001	40.000000
67.196000	39.837030	0.586691	0.000000	0.000000	0.586691	40.000000
67.095000	39.837454	0.585165	0.000000	-0.000000	0.585165	40.000000
66.996000	39.835292	0.592949	0.000000	-0.000000	0.592949	40.000000
66.897000	39.832351	0.603536	0.000000	-0.000000	0.603536	40.000000
66.795000	39.829410	0.614122	0.000000	0.000000	0.614122	40.000000
66.695000	39.833014	0.601151	0.000000	0.000000	0.601151	40.000000
66.596000	39.837699	0.584282	0.000000	-0.000000	0.584282	40.000000
66.496000	39.837450	0.585180	0.000000	-0.000000	0.585180	40.000000
66.396000	39.836789	0.587560	0.000000	0.000000	0.587560	40.000000
66.301000	39.840215	0.575226	0.000000	0.000000	0.575226	40.000000
66.196000	39.845258	0.557072	0.000000	0.000000	0.557072	40.000000
66.095000	39.848009	0.547167	0.000000	0.000000	0.547167	40.000000
65.998000	39.852934	0.529439	0.000000	0.000000	0.529439	40.000000
65.895000	39.858394	0.509782	0.000000	0.000000	0.509782	40.000000
65.795000	39.864817	0.486661	0.000000	0.000000	0.486661	40.000000
65.695000	39.870327	0.466821	0.000000	0.000000	0.466821	40.000000
65.595000	39.874956	0.450159	0.000000	0.000000	0.450159	40.000000
65.498000	39.880236	0.431150	0.000000	0.000000	0.431150	40.000000
65.397000	39.882934	0.421437	0.000000	0.000000	0.421437	40.000000
65.301000	39.887553	0.404809	0.000000	0.000000	0.404809	40.000000
65.209000	39.894272	0.380621	0.000000	0.000000	0.380621	40.000000
65.100000	39.908257	0.330275	0.000000	0.000000	0.330275	40.000000
64.995000	39.921875	0.281248	0.000000	0.000000	0.281248	40.000000
64.894000	39.937420	0.225287	0.000000	0.000000	0.225287	40.000000
64.797000	39.944616	0.199382	0.000000	0.000000	0.199382	40.000000
64.700000	39.953190	0.168515	0.000000	0.000000	0.168515	40.000000
64.598000	39.961774	0.137614	0.000000	0.000000	0.137614	40.000000
64.493000	39.965737	0.123346	0.000000	0.000000	0.123346	40.000000
64.396000	39.968613	0.112995	0.000000	0.000000	0.112995	40.000000
64.296000	39.972101	0.100436	0.000000	-0.000000	0.100436	40.000000
64.196000	39.970895	0.104779	0.000000	0.000000	0.104779	40.000000
64.097000	39.972218	0.100013	0.000000	-0.000000	0.100013	40.000000
63.996000	39.969576	0.109525	0.000000	0.000000	0.109525	40.000000
63.895000	39.974375	0.092249	0.000000	-0.000000	0.092249	40.000000
63.796000	39.964053	0.129407	0.000000	0.000000	0.129407	40.000000
63.695000	39.964661	0.127219	0.000000	-0.000000	0.127219	40.000000
63.599000	39.959257	0.146674	0.000000	-0.000000	0.146674	40.000000
63.503000	39.953500	0.167401	0.000000	-0.000000	0.167401	40.000000
63.414000	39.950559	0.177988	0.000000	-0.000000	0.177988	40.000000
63.325000	39.943052	0.205011	0.000000	-0.000000	0.205011	40.000000
63.234000	39.935141	0.233493	0.000000	-0.000000	0.233493	40.000000
63.145000	39.929673	0.253179	0.000000	-0.000000	0.253179	40.000000
63.056000	39.923620	0.274966	0.000000	-0.000000	0.274966	40.000000
62.964000	39.919841	0.288572	0.000000	-0.000000	0.288572	40.000000
62.800000	39.912817	0.313858	0.000000	-0.000000	0.313858	40.000000
62.698000	39.906939	0.335021	0.000000	-0.000000	0.335021	40.000000
62.597000	39.899201	0.362875	0.000000	-0.000000	0.362875	40.000000
62.499000	39.887495	0.405020	0.000000	-0.000000	0.405020	40.000000
62.396000	39.882698	0.422287	0.000000	-0.000000	0.422287	40.000000
62.296000	39.874716	0.451023	0.000000	-0.000000	0.451023	40.000000
62.198000	39.863192	0.492511	0.000000	-0.000000	0.492511	40.000000
62.094000	39.854556	0.523599	0.000000	-0.000000	0.523599	40.000000
61.996000	39.854253	0.524688	0.000000	-0.000000	0.524688	40.000000
61.898000	39.848555	0.545204	0.000000	-0.000000	0.545204	40.000000
61.795000	39.841656	0.570039	0.000000	-0.000000	0.570039	40.000000
61.697000	39.835838	0.590982	0.000000	-0.000000	0.590982	40.000000
61.595000	39.829772	0.612822	0.000000	-0.000000	0.612822	40.000000
61.495000	39.823953	0.633770	0.000000	-0.000000	0.633770	40.000000
61.396000	39.823654	0.634845	0.000000	-0.000000	0.634845	40.000000
61.299000	39.822329	0.639615	0.000000	0.000000	0.639615	40.000000
61.195000	39.823480	0.635473	0.000000	-0.000000	0.635473	40.000000
61.096000	39.823356	0.635919	0.000000	-0.000000	0.635919	40.000000
60.996000	39.822093	0.640464	0.000000	0.000000	0.640464	40.000000
60.896000	39.826118	0.625976	0.000000	-0.000000	0.625976	40.000000
60.796000	39.826055	0.626201	0.000000	0.000000	0.626201	40.000000
60.699000	39.831401	0.606957	0.000000	0.000000	0.606957	40.000000
60.597000	39.839610	0.577405	0.000000	0.000000	0.577405	40.000000
60.496000	39.845135	0.557513	0.000000	0.000000	0.557513	40.000000
60.397000	39.854189	0.524918	0.000000	0.000000	0.524918	40.000000
60.297000	39.858395	0.509777	0.000000	0.000000	0.509777	40.000000
60.201000	39.867637	0.476506	0.000000	0.000000	0.476506	40.000000
60.098000	39.876879	0.443234	0.000000	0.000000	0.443234	40.000000
59.999000	39.886777	0.407602	0.000000	0.000000	0.407602	40.000000
59.895000	39.893373	0.383856	0.000000	0.000000	0.383856	40.000000
59.795000	39.907053	0.334609	0.000000	0.000000	0.334609	40.000000
59.694000	39.921642	0.282088	0.000000	0.000000	0.282088	40.000000
59.594000	39.930582	0.249906	0.000000	0.000000	0.249906	40.000000
59.495000	39.937595	0.224658	0.000000	0.000000	0.224658	40.000000
59.398000	39.945697	0.195490	0.000000	0.000000	0.195490	40.000000
59.297000	39.950554	0.178007	0.000000	0.000000	0.178007	40.000000
59.194000	39.955175	0.161369	0.000000	0.000000	0.161369	40.000000
59.095000	39.960214	0.143229	0.000000	0.000000	0.143229	40.000000
58.995000	39.964293	0.128544	0.000000	0.000000	0.128544	40.000000
58.897000	39.969695	0.109098	0.000000	0.000000	0.109098	40.000000
58.799000	39.976179	0.085756	0.000000	0.000000	0.085756	40.000000
58.696000	39.978878	0.076038	0.000000	0.000000	0.076038	40.000000
58.595000	39.982602	0.062634	0.000000	0.000000	0.062634	40.000000
58.498000	39.982898	0.061569	0.000000	0.000000	0.061569	40.000000
58.400000	39.987457	0.045156	0.000000	-0.000000	0.045156	40.000000
58.297000	39.983856	0.058118	0.000000	0.000000	0.058118	40.000000
58.198000	39.985426	0.052465	0.000000	-0.000000	0.052465	40.000000
58.096000	39.978344	0.077962	0.000000	-0.000000	0.077962	40.000000
57.995000	39.973958	0.093751	0.000000	-0.000000	0.093751	40.000000
57.896000	39.968557	0.113196	0.000000	-0.000000	0.113196	40.000000
57.797000	39.959138	0.147101	0.000000	-0.000000	0.147101	40.000000
57.706000	39.954096	0.165256	0.000000	-0.000000	0.165256	40.000000
57.595000	39.942935	0.205433	0.000000	-0.000000	0.205433	40.000000
57.497000	39.931597	0.246249	0.000000	-0.000000	0.246249	40.000000
57.397000	39.919120	0.291168	0.000000	-0.000000	0.291168	40.000000
57.296000	39.911496	0.318613	0.000000	-0.000000	0.318613	40.000000
57.195000	39.894760	0.378865	0.000000	-0.000000	0.378865	40.000000
57.096000	39.884078	0.417320	0.000000	-0.000000	0.417320	40.000000
56.997000	39.877478	0.441079	0.000000	-0.000000	0.441079	40.000000
56.899000	39.866431	0.480849	0.000000	-0.000000	0.480849	40.000000
56.797000	39.859771	0.504825	0.000000	-0.000000	0.504825	40.000000
56.696000	39.852578	0.530720	0.000000	-0.000000	0.530720	40.000000
56.597000	39.840091	0.575673	0.000000	-0.000000	0.575673	40.000000
56.498000	39.827849	0.619742	0.000000	-0.000000	0.619742	40.000000
56.396000	39.817600	0.656642	0.000000	-0.000000	0.656642	40.000000
56.298000	39.814359	0.668308	0.000000	-0.000000	0.668308	40.000000
56.206000	39.812070	0.676548	0.000000	-0.000000	0.676548	40.000000
56.117000	39.811477	0.678684	0.000000	-0.000000	0.678684	40.000000
56.029000	39.810690	0.681515	0.000000	0.000000	0.681515	40.000000
55.942000	39.811766	0.677642	0.000000	0.000000	0.677642	40.000000
55.854000	39.812549	0.674825	0.000000	-0.000000	0.674825	40.000000
55.765000	39.809972	0.684102	0.000000	0.000000	0.684102	40.000000
55.603000	39.815203	0.665270	0.000000	0.000000	0.665270	40.000000
55.513000	39.815615	0.663787	0.000000	0.000000	0.663787	40.000000
55.421000	39.818191	0.654511	0.000000	0.000000	0.654511	40.000000
55.332000	39.822515	0.638948	0.000000	0.000000	0.638948	40.000000
55.246000	39.828151	0.618657	0.000000	0.000000	0.618657	40.000000
55.158000	39.832234	0.603958	0.000000	0.000000	0.603958	40.000000
55.050000	39.839375	0.578250	0.000000	0.000000	0.578250	40.000000
54.961000	39.849034	0.543476	0.000000	0.000000	0.543476	40.000000
54.795000	39.866916	0.479102	0.000000	0.000000	0.479102	40.000000
54.701000	39.878920	0.435887	0.000000	0.000000	0.435887	40.000000
54.601000	39.888518	0.401334	0.000000	0.000000	0.401334	40.000000
54.497000	39.898174	0.366575	0.000000	0.000000	0.366575	40.000000
54.393000	39.907472	0.333102	0.000000	0.000000	0.333102	40.000000
54.299000	39.916118	0.301975	0.000000	0.000000	0.301975	40.000000
54.197000	39.925300	0.268920	0.000000	0.000000	0.268920	40.000000
54.100000	39.939459	0.217949	0.000000	0.000000	0.217949	40.000000
54.007000	39.950319	0.178852	0.000000	0.000000	0.178852	40.000000
53.919000	39.956439	0.156819	0.000000	0.000000	0.156819	40.000000
53.828000	39.966702	0.119872	0.000000	0.000000	0.119872	40.000000
53.740000	39.970960	0.104544	0.000000	0.000000	0.104544	40.000000
53.651000	39.973542	0.095248	0.000000	0.000000	0.095248	40.000000
53.563000	39.979956	0.072160	0.000000	0.000000	0.072160	40.000000
53.395000	39.981999	0.064803	0.000000	0.000000	0.064803	40.000000
53.297000	39.987823	0.043836	0.000000	0.000000	0.043836	40.000000
53.197000	39.989144	0.039080	0.000000	0.000000	0.039080	40.000000
53.098000	39.993222	0.024400	0.000000	0.000000	0.024400	40.000000
52.998000	39.996160	0.013823	0.000000	-0.000000	0.013823	40.000000
52.896000	39.995076	0.017725	0.000000	-0.000000	0.017725	40.000000
52.796000	39.992018	0.028734	0.000000	-0.000000	0.028734	40.000000
52.699000	39.988182	0.042545	0.000000	-0.000000	0.042545	40.000000
52.596000	39.982900	0.061559	0.000000	-0.000000	0.061559	40.000000
52.497000	39.975462	0.088337	0.000000	-0.000000	0.088337	40.000000
52.399000	39.971679	0.101957	0.000000	-0.000000	0.101957	40.000000
52.297000	39.961359	0.139106	0.000000	-0.000000	0.139106	40.000000
52.198000	39.956202	0.157674	0.000000	-0.000000	0.157674	40.000000
52.099000	39.944378	0.200241	0.000000	-0.000000	0.200241	40.000000
51.994000	39.933338	0.239982	0.000000	-0.000000	0.239982	40.000000
51.896000	39.921458	0.282750	0.000000	-0.000000	0.282750	40.000000
51.798000	39.909339	0.326378	0.000000	-0.000000	0.326378	40.000000
51.696000	39.896734	0.371758	0.000000	-0.000000	0.371758	40.000000
51.597000	39.885031	0.413888	0.000000	-0.000000	0.413888	40.000000
51.494000	39.871418	0.462896	0.000000	-0.000000	0.462896	40.000000
51.396000	39.863551	0.491215	0.000000	-0.000000	0.491215	40.000000
51.296000	39.848852	0.544134	0.000000	-0.000000	0.544134	40.000000
51.200000	39.838655	0.580841	0.000000	-0.000000	0.580841	40.000000
51.098000	39.827797	0.619929	0.000000	-0.000000	0.619929	40.000000
50.996000	39.818794	0.652342	0.000000	-0.000000	0.652342	40.000000
50.895000	39.814531	0.667689	0.000000	-0.000000	0.667689	40.000000
50.795000	39.809734	0.684956	0.000000	-0.000000	0.684956	40.000000
50.696000	39.804098	0.705246	0.000000	-0.000000	0.705246	40.000000
50.599000	39.798694	0.724701	0.000000	0.000000	0.724701	40.000000
50.497000	39.801991	0.712833	0.000000	-0.000000	0.712833	40.000000
50.395000	39.801693	0.713903	0.000000	-0.000000	0.713903	40.000000
50.299000	39.800436	0.718429	0.000000	0.000000	0.718429	40.000000
50.208000	39.804032	0.705486	0.000000	0.000000	0.705486	40.000000
50.098000	39.809496	0.685815	0.000000	0.000000	0.685815	40.000000
49.997000	39.820111	0.647600	0.000000	0.000000	0.647600	40.000000
49.896000	39.827134	0.622319	0.000000	0.000000	0.622319	40.000000
49.797000	39.836012	0.590358	0.000000	0.000000	0.590358	40.000000
49.699000	39.846930	0.551054	0.000000	0.000000	0.551054	40.000000
49.597000	39.855878	0.518838	0.000000	0.000000	0.518838	40.000000
49.495000	39.869797	0.468731	0.000000	0.000000	0.468731	40.000000
49.397000	39.881372	0.427062	0.000000	0.000000	0.427062	40.000000
49.296000	39.888034	0.403076	0.000000	0.000000	0.403076	40.000000
49.195000	39.897874	0.367655	0.000000	0.000000	0.367655	40.000000
49.097000	39.913119	0.312773	0.000000	0.000000	0.312773	40.000000
48.999000	39.921400	0.282962	0.000000	0.000000	0.282962	40.000000
48.894000	39.932495	0.243019	0.000000	0.000000	0.243019	40.000000
48.795000	39.940957	0.212555	0.000000	0.000000	0.212555	40.000000
48.698000	39.952353	0.171528	0.000000	0.000000	0.171528	40.000000
48.597000	39.957460	0.153143	0.000000	0.000000	0.153143	40.000000
48.499000	39.962916	0.133501	0.000000	0.000000	0.133501	40.000000
48.398000	39.968015	0.115145	0.000000	0.000000	0.115145	40.000000
48.300000	39.972572	0.098742	0.000000	0.000000	0.098742	40.000000
48.197000	39.975698	0.087488	0.000000	0.000000	0.087488	40.000000
48.097000	39.977857	0.079714	0.000000	0.000000	0.079714	40.000000
47.999000	39.980915	0.068705	0.000000	0.000000	0.068705	40.000000
47.895000	39.983561	0.059179	0.000000	-0.000000	0.059179	40.000000
47.801000	39.981338	0.067183	0.000000	-0.000000	0.067183	40.000000
47.711000	39.980981	0.068470	0.000000	-0.000000	0.068470	40.000000
47.598000	39.979778	0.072798	0.000000	-0.000000	0.072798	40.000000
47.499000	39.979658	0.073230	0.000000	-0.000000	0.073230	40.000000
47.395000	39.975999	0.086403	0.000000	-0.000000	0.086403	40.000000
47.296000	39.967842	0.115769	0.000000	-0.000000	0.115769	40.000000
47.198000	39.958359	0.149909	0.000000	-0.000000	0.149909	40.000000
47.101000	39.950740	0.177335	0.000000	-0.000000	0.177335	40.000000
46.998000	39.944800	0.198720	0.000000	-0.000000	0.198720	40.000000
46.897000	39.935198	0.233287	0.000000	-0.000000	0.233287	40.000000
46.796000	39.928057	0.258995	0.000000	-0.000000	0.258995	40.000000
46.698000	39.923622	0.274962	0.000000	-0.000000	0.274962	40.000000
46.599000	39.914621	0.307365	0.000000	-0.000000	0.307365	40.000000
46.499000	39.900817	0.357058	0.000000	-0.000000	0.357058	40.000000
46.397000	39.887670	0.404386	0.000000	-0.000000	0.404386	40.000000
46.295000	39.877955	0.439361	0.000000	-0.000000	0.439361	40.000000
46.198000	39.871057	0.464196	0.000000	-0.000000	0.464196	40.000000
46.098000	39.859050	0.507421	0.000000	-0.000000	0.507421	40.000000
45.994000	39.852510	0.530965	0.000000	-0.000000	0.530965	40.000000
45.896000	39.843516	0.563344	0.000000	-0.000000	0.563344	40.000000
45.795000	39.830732	0.609367	0.000000	-0.000000	0.609367	40.000000
45.697000	39.824367	0.632277	0.000000	-0.000000	0.632277	40.000000
45.598000	39.813512	0.671355	0.000000	-0.000000	0.671355	40.000000
45.497000	39.807875	0.691650	0.000000	-0.000000	0.691650	40.000000
45.395000	39.806074	0.698134	0.000000	-0.000000	0.698134	40.000000
45.298000	39.804393	0.704185	0.000000	-0.000000	0.704185	40.000000
45.202000	39.803848	0.706148	0.000000	-0.000000	0.706148	40.000000
45.099000	39.799771	0.720824	0.000000	0.000000	0.720824	40.000000
44.998000	39.799948	0.720185	0.000000	0.000000	0.720185	40.000000
44.900000	39.802055	0.712603	0.000000	0.000000	0.712603	40.000000
44.798000	39.807039	0.694659	0.000000	0.000000	0.694659	40.000000
44.698000	39.813447	0.671591	0.000000	0.000000	0.671591	40.000000
44.599000	39.817831	0.655807	0.000000	0.000000	0.655807	40.000000
44.496000	39.827552	0.620812	0.000000	0.000000	0.620812	40.000000
44.396000	39.832474	0.603094	0.000000	0.000000	0.603094	40.000000
44.299000	39.840749	0.573302	0.000000	0.000000	0.573302	40.000000
44.196000	39.847413	0.549312	0.000000	0.000000	0.549312	40.000000
44.099000	39.848854	0.544124	0.000000	0.000000	0.544124	40.000000
