# Zeit (s)	# Kanal 2 (V)	# D0-D7	
-1	0.785547	0
-0.998	0.766016	0
-0.996	0.741797	0
-0.994	0.715625	0
-0.992	0.689063	0
-0.99	0.665625	0
-0.988	0.644531	0
-0.986	0.628906	0
-0.984	0.61875	0
-0.982	0.615234	0
-0.98	0.617188	0
-0.978	0.624609	0
-0.976	0.635938	0
-0.974	0.650391	0
-0.972	0.666406	0
-0.97	0.682422	0
-0.968	0.697656	0
-0.966	0.7125	0
-0.964	0.725391	0
-0.962	0.735547	0
-0.96	0.743359	0
-0.958	0.748047	0
-0.956	0.749609	0
-0.954	0.747656	0
-0.952	0.743359	0
-0.95	0.737109	0
-0.948	0.730078	0
-0.946	0.723828	0
-0.944	0.719141	0
-0.942	0.716406	0
-0.94	0.716797	0
-0.938	0.719531	0
-0.936	0.725	0
-0.934	0.733203	0
-0.932	0.743359	0
-0.93	0.754688	0
-0.928	0.767188	0
-0.926	0.779297	0
-0.924	0.790625	0
-0.922	0.8	0
-0.92	0.807422	0
-0.918	0.8125	0
-0.916	0.816016	0
-0.914	0.817969	0
-0.912	0.819922	0
-0.91	0.821484	0
-0.908	0.823047	0
-0.906	0.825	0
-0.904	0.827344	0
-0.902	0.829297	0
-0.9	0.83125	0
-0.898	0.833203	0
-0.896	0.835547	0
-0.894	0.837891	0
-0.892	0.840625	0
-0.89	0.844141	0
-0.888	0.847656	0
-0.886	0.851563	0
-0.884	0.855469	0
-0.882	0.858984	0
-0.88	0.861719	0
-0.878	0.863672	0
-0.876	0.865234	0
-0.874	0.865625	0
-0.872	0.864844	0
-0.87	0.8625	0
-0.868	0.858594	0
-0.866	0.853906	0
-0.864	0.847656	0
-0.862	0.840234	0
-0.86	0.831641	0
-0.858	0.823828	0
-0.856	0.816406	0
-0.854	0.809766	0
-0.852	0.803516	0
-0.85	0.798047	0
-0.848	0.79375	0
-0.846	0.790234	0
-0.844	0.787891	0
-0.842	0.785938	0
-0.84	0.783203	0
-0.838	0.780078	0
-0.836	0.775781	0
-0.834	0.770703	0
-0.832	0.763672	0
-0.83	0.75625	0
-0.828	0.748828	0
-0.826	0.742188	0
-0.824	0.735547	0
-0.822	0.729688	0
-0.82	0.724219	0
-0.818	0.719141	0
-0.816	0.714453	0
-0.814	0.709766	0
-0.812	0.705469	0
-0.81	0.702344	0
-0.808	0.699609	0
-0.806	0.697266	0
-0.804	0.695703	0
-0.802	0.694922	0
-0.8	0.694531	0
-0.798	0.695313	0
-0.796	0.696094	0
-0.794	0.697266	0
-0.792	0.698828	0
-0.79	0.7	0
-0.788	0.701172	0
-0.786	0.701563	0
-0.784	0.700781	0
-0.782	0.7	0
-0.78	0.698047	0
-0.778	0.695703	0
-0.776	0.692578	0
-0.774	0.689453	0
-0.772	0.686328	0
-0.77	0.682813	0
-0.768	0.678906	0
-0.766	0.675391	0
-0.764	0.671875	0
-0.762	0.669141	0
-0.76	0.667969	0
-0.758	0.668359	0
-0.756	0.670313	0
-0.754	0.673828	0
-0.752	0.678516	0
-0.75	0.683594	0
-0.748	0.689063	0
-0.746	0.694531	0
-0.744	0.699219	0
-0.742	0.702344	0
-0.74	0.703906	0
-0.738	0.703516	0
-0.736	0.701563	0
-0.734	0.698438	0
-0.732	0.694141	0
-0.73	0.689063	0
-0.728	0.683594	0
-0.726	0.678125	0
-0.724	0.673047	0
-0.722	0.66875	0
-0.72	0.666406	0
-0.718	0.666016	0
-0.716	0.669141	0
-0.714	0.675391	0
-0.712	0.683984	0
-0.71	0.695703	0
-0.708	0.708594	0
-0.706	0.722266	0
-0.704	0.733594	0
-0.702	0.742188	0
-0.7	0.747656	0
-0.698	0.748828	0
-0.696	0.746094	0
-0.694	0.739844	0
-0.692	0.730859	0
-0.69	0.720313	0
-0.688	0.708594	0
-0.686	0.698828	0
-0.684	0.691797	0
-0.682	0.688672	0
-0.68	0.689453	0
-0.678	0.694922	0
-0.676	0.704688	0
-0.674	0.718359	0
-0.672	0.733203	0
-0.67	0.748438	0
-0.668	0.7625	0
-0.666	0.773828	0
-0.664	0.781641	0
-0.662	0.786328	0
-0.66	0.787109	0
-0.658	0.785156	0
-0.656	0.780469	0
-0.654	0.774219	0
-0.652	0.767188	0
-0.65	0.758984	0
-0.648	0.750781	0
-0.646	0.742969	0
-0.644	0.735547	0
-0.642	0.729297	0
-0.64	0.723438	0
-0.638	0.71875	0
-0.636	0.714844	0
-0.634	0.711328	0
-0.632	0.709375	0
-0.63	0.708594	0
-0.628	0.709766	0
-0.626	0.712109	0
-0.624	0.715625	0
-0.622	0.719531	0
-0.62	0.723438	0
-0.618	0.727344	0
-0.616	0.730469	0
-0.614	0.733203	0
-0.612	0.735938	0
-0.61	0.737891	0
-0.608	0.739063	0
-0.606	0.739063	0
-0.604	0.7375	0
-0.602	0.734375	0
-0.6	0.730078	0
-0.598	0.723438	0
-0.596	0.714844	0
-0.594	0.705078	0
-0.592	0.695703	0
-0.59	0.686328	0
-0.588	0.678516	0
-0.586	0.672266	0
-0.584	0.667969	0
-0.582	0.665625	0
-0.58	0.666016	0
-0.578	0.668359	0
-0.576	0.672656	0
-0.574	0.677344	0
-0.572	0.682422	0
-0.57	0.686719	0
-0.568	0.689453	0
-0.566	0.690234	0
-0.564	0.689063	0
-0.562	0.686328	0
-0.56	0.682422	0
-0.558	0.678125	0
-0.556	0.674609	0
-0.554	0.673438	0
-0.552	0.675391	0
-0.55	0.682031	0
-0.548	0.694141	0
-0.546	0.713281	0
-0.544	0.739453	0
-0.542	0.773438	0
-0.54	0.814844	0
-0.538	0.861719	0
-0.536	0.913672	0
-0.534	0.967969	0
-0.532	1.02187	0
-0.53	1.07539	0
-0.528	1.12148	0
-0.526	1.15937	0
-0.524	1.18437	0
-0.522	1.19375	0
-0.52	1.18516	0
-0.518	1.1582	0
-0.516	1.11445	0
-0.514	1.05664	0
-0.512	0.9875	0
-0.51	0.911719	0
-0.508	0.832813	0
-0.506	0.755078	0
-0.504	0.685938	0
-0.502	0.629297	0
-0.5	0.586328	0
-0.498	0.559766	0
-0.496	0.55	0
-0.494	0.557422	0
-0.492	0.578906	0
-0.49	0.611328	0
-0.488	0.651563	0
-0.486	0.694922	0
-0.484	0.739844	0
-0.482	0.782422	0
-0.48	0.819141	0
-0.478	0.847656	0
-0.476	0.864844	0
-0.474	0.872266	0
-0.472	0.869531	0
-0.47	0.858203	0
-0.468	0.837109	0
-0.466	0.808984	0
-0.464	0.776953	0
-0.462	0.74375	0
-0.46	0.7125	0
-0.458	0.685156	0
-0.456	0.664063	0
-0.454	0.648438	0
-0.452	0.640234	0
-0.45	0.640234	0
-0.448	0.647266	0
-0.446	0.661328	0
-0.444	0.680859	0
-0.442	0.703516	0
-0.44	0.729297	0
-0.438	0.754297	0
-0.436	0.777734	0
-0.434	0.798047	0
-0.432	0.813281	0
-0.43	0.822656	0
-0.428	0.826563	0
-0.426	0.825391	0
-0.424	0.819531	0
-0.422	0.810938	0
-0.42	0.799219	0
-0.418	0.786719	0
-0.416	0.774609	0
-0.414	0.764063	0
-0.412	0.755469	0
-0.41	0.75	0
-0.408	0.747656	0
-0.406	0.748828	0
-0.404	0.752734	0
-0.402	0.760156	0
-0.4	0.769922	0
-0.398	0.78125	0
-0.396	0.794141	0
-0.394	0.807422	0
-0.392	0.819922	0
-0.39	0.831641	0
-0.388	0.842969	0
-0.386	0.852344	0
-0.384	0.859375	0
-0.382	0.865625	0
-0.38	0.869531	0
-0.378	0.873047	0
-0.376	0.875391	0
-0.374	0.875781	0
-0.372	0.875391	0
-0.37	0.873438	0
-0.368	0.870703	0
-0.366	0.867969	0
-0.364	0.865234	0
-0.362	0.862891	0
-0.36	0.861719	0
-0.358	0.861719	0
-0.356	0.863672	0
-0.354	0.867578	0
-0.352	0.872656	0
-0.35	0.880078	0
-0.348	0.888281	0
-0.346	0.896484	0
-0.344	0.903125	0
-0.342	0.908203	0
-0.34	0.910938	0
-0.338	0.910938	0
-0.336	0.908203	0
-0.334	0.902734	0
-0.332	0.894531	0
-0.33	0.883984	0
-0.328	0.873047	0
-0.326	0.862109	0
-0.324	0.851172	0
-0.322	0.838672	0
-0.32	0.827734	0
-0.318	0.818359	0
-0.316	0.811328	0
-0.314	0.80625	0
-0.312	0.803906	0
-0.31	0.803516	0
-0.308	0.804688	0
-0.306	0.806641	0
-0.304	0.808203	0
-0.302	0.808203	0
-0.3	0.807031	0
-0.298	0.804297	0
-0.296	0.8	0
-0.294	0.794141	0
-0.292	0.7875	0
-0.29	0.779688	0
-0.288	0.771094	0
-0.286	0.761719	0
-0.284	0.752344	0
-0.282	0.742578	0
-0.28	0.733594	0
-0.278	0.725391	0
-0.276	0.718359	0
-0.274	0.712109	0
-0.272	0.707422	0
-0.27	0.705078	0
-0.268	0.704688	0
-0.266	0.705469	0
-0.264	0.707813	0
-0.262	0.711719	0
-0.26	0.716797	0
-0.258	0.721484	0
-0.256	0.726563	0
-0.254	0.73125	0
-0.252	0.734375	0
-0.25	0.737109	0
-0.248	0.737891	0
-0.246	0.7375	0
-0.244	0.735938	0
-0.242	0.733203	0
-0.24	0.730078	0
-0.238	0.726563	0
-0.236	0.722656	0
-0.234	0.719531	0
-0.232	0.717188	0
-0.23	0.716016	0
-0.228	0.716406	0
-0.226	0.717969	0
-0.224	0.719922	0
-0.222	0.723047	0
-0.22	0.726563	0
-0.218	0.729688	0
-0.216	0.732422	0
-0.214	0.735156	0
-0.212	0.736719	0
-0.21	0.7375	0
-0.208	0.736719	0
-0.206	0.734766	0
-0.204	0.732422	0
-0.202	0.729297	0
-0.2	0.725781	0
-0.198	0.722656	0
-0.196	0.720313	0
-0.194	0.719141	0
-0.192	0.719141	0
-0.19	0.720313	0
-0.188	0.722266	0
-0.186	0.724609	0
-0.184	0.726563	0
-0.182	0.728516	0
-0.18	0.729688	0
-0.178	0.730859	0
-0.176	0.732031	0
-0.174	0.733203	0
-0.172	0.734375	0
-0.17	0.735938	0
-0.168	0.7375	0
-0.166	0.739453	0
-0.164	0.741797	0
-0.162	0.744141	0
-0.16	0.746484	0
-0.158	0.748438	0
-0.156	0.749219	0
-0.154	0.749219	0
-0.152	0.748047	0
-0.15	0.746484	0
-0.148	0.745703	0
-0.146	0.745313	0
-0.144	0.746875	0
-0.142	0.75	0
-0.14	0.755078	0
-0.138	0.7625	0
-0.136	0.770703	0
-0.134	0.779297	0
-0.132	0.787891	0
-0.13	0.794922	0
-0.128	0.800781	0
-0.126	0.804297	0
-0.124	0.805469	0
-0.122	0.804688	0
-0.12	0.802344	0
-0.118	0.798828	0
-0.116	0.794531	0
-0.114	0.790234	0
-0.112	0.786719	0
-0.11	0.783984	0
-0.108	0.782422	0
-0.106	0.782031	0
-0.104	0.782031	0
-0.102	0.782031	0
-0.1	0.782031	0
-0.098	0.78125	0
-0.096	0.779297	0
-0.094	0.776172	0
-0.092	0.771094	0
-0.09	0.764844	0
-0.088	0.757031	0
-0.086	0.750391	0
-0.084	0.744531	0
-0.082	0.740625	0
-0.08	0.738672	0
-0.078	0.738281	0
-0.076	0.739453	0
-0.074	0.741797	0
-0.072	0.744531	0
-0.07	0.747656	0
-0.068	0.75	0
-0.066	0.751172	0
-0.064	0.750781	0
-0.062	0.749219	0
-0.06	0.746484	0
-0.058	0.743359	0
-0.056	0.739844	0
-0.054	0.736328	0
-0.052	0.733203	0
-0.05	0.730469	0
-0.048	0.727734	0
-0.046	0.724609	0
-0.044	0.722266	0
-0.042	0.719922	0
-0.04	0.71875	0
-0.038	0.717578	0
-0.036	0.716016	0
-0.034	0.714453	0
-0.032	0.712109	0
-0.03	0.709766	0
-0.028	0.706641	0
-0.026	0.703125	0
-0.024	0.699219	0
-0.022	0.695313	0
-0.02	0.692578	0
-0.018	0.691406	0
-0.016	0.694141	0
-0.014	0.701563	0
-0.012	0.715234	0
-0.01	0.735547	0
-0.008	0.763281	0
-0.006	0.799609	0
-0.004	0.842188	0
-0.002	0.890234	0
0.0000000000000000208167	0.944141	0
0.002	0.999219	0
0.004	1.05664	0
0.006	1.11172	0
0.008	1.16328	0
0.01	1.20703	0
0.012	1.23867	0
0.014	1.25586	0
0.016	1.25586	0
0.018	1.23672	0
0.02	1.19922	0
0.022	1.14375	0
0.024	1.07578	0
0.026	0.997656	0
0.028	0.916016	0
0.03	0.833984	0
0.032	0.75625	0
0.034	0.690625	0
0.036	0.639844	0
0.038	0.604688	0
0.04	0.587109	0
0.042	0.587109	0
0.044	0.602344	0
0.046	0.630469	0
0.048	0.667969	0
0.05	0.710547	0
0.052	0.75625	0
0.054	0.801172	0
0.056	0.840625	0
0.058	0.870313	0
0.06	0.891016	0
0.062	0.901172	0
0.064	0.899219	0
0.066	0.885547	0
0.068	0.864453	0
0.07	0.836328	0
0.072	0.802344	0
0.074	0.766797	0
0.076	0.732422	0
0.078	0.701953	0
0.08	0.678125	0
0.082	0.661328	0
0.084	0.653125	0
0.086	0.653906	0
0.088	0.663672	0
0.09	0.680078	0
0.092	0.701172	0
0.094	0.726953	0
0.096	0.753125	0
0.098	0.778906	0
0.1	0.801953	0
0.102	0.820313	0
0.104	0.833203	0
0.106	0.840625	0
0.108	0.841406	0
0.11	0.836719	0
0.112	0.828125	0
0.114	0.817188	0
0.116	0.804688	0
0.118	0.791797	0
0.12	0.78125	0
0.122	0.773438	0
0.124	0.769141	0
0.126	0.768359	0
0.128	0.771094	0
0.13	0.776953	0
0.132	0.785938	0
0.134	0.796875	0
0.136	0.809766	0
0.138	0.822266	0
0.14	0.834766	0
0.142	0.846484	0
0.144	0.85625	0
0.146	0.864844	0
0.148	0.871094	0
0.15	0.876563	0
0.152	0.879688	0
0.154	0.880859	0
0.156	0.880078	0
0.158	0.877734	0
0.16	0.874219	0
0.162	0.870313	0
0.164	0.866797	0
0.166	0.863672	0
0.168	0.861719	0
0.17	0.861719	0
0.172	0.862891	0
0.174	0.866016	0
0.176	0.869922	0
0.178	0.875	0
0.18	0.88125	0
0.182	0.888672	0
0.184	0.896094	0
0.186	0.903125	0
0.188	0.909766	0
0.19	0.915234	0
0.192	0.919141	0
0.194	0.921484	0
0.196	0.921484	0
0.198	0.919531	0
0.2	0.914844	0
0.202	0.908594	0
0.204	0.9	0
0.206	0.890234	0
0.208	0.879688	0
0.21	0.870313	0
0.212	0.862891	0
0.214	0.85625	0
0.216	0.851563	0
0.218	0.848047	0
0.22	0.845313	0
0.222	0.843359	0
0.224	0.842188	0
0.226	0.841016	0
0.228	0.839453	0
0.23	0.837109	0
0.232	0.832813	0
0.234	0.827734	0
0.236	0.821094	0
0.238	0.8125	0
0.24	0.802734	0
0.242	0.791406	0
0.244	0.780469	0
0.246	0.769531	0
0.248	0.759375	0
0.25	0.750391	0
0.252	0.743359	0
0.254	0.738672	0
0.256	0.736328	0
0.258	0.736328	0
0.26	0.738672	0
0.262	0.742969	0
0.264	0.748047	0
0.266	0.753516	0
0.268	0.758203	0
0.27	0.761719	0
0.272	0.764063	0
0.274	0.764844	0
0.276	0.764063	0
0.278	0.761719	0
0.28	0.757422	0
0.282	0.752734	0
0.284	0.747266	0
0.286	0.741406	0
0.288	0.736328	0
0.29	0.731641	0
0.292	0.728516	0
0.294	0.726172	0
0.296	0.725781	0
0.298	0.726953	0
0.3	0.730078	0
0.302	0.734766	0
0.304	0.741016	0
0.306	0.747656	0
0.308	0.753906	0
0.31	0.759375	0
0.312	0.764063	0
0.314	0.766797	0
0.316	0.767188	0
0.318	0.765234	0
0.32	0.760938	0
0.322	0.755078	0
0.324	0.748438	0
0.326	0.741406	0
0.328	0.734375	0
0.33	0.729297	0
0.332	0.725	0
0.334	0.723047	0
0.336	0.722656	0
0.338	0.724219	0
0.34	0.727344	0
0.342	0.732031	0
0.344	0.737891	0
0.346	0.744141	0
0.348	0.749609	0
0.35	0.754688	0
0.352	0.758203	0
0.354	0.760547	0
0.356	0.761328	0
0.358	0.760547	0
0.36	0.758594	0
0.362	0.755469	0
0.364	0.752344	0
0.366	0.749219	0
0.368	0.746875	0
0.37	0.744922	0
0.372	0.744531	0
0.374	0.744922	0
0.376	0.746484	0
0.378	0.75	0
0.38	0.754297	0
0.382	0.760547	0
0.384	0.767578	0
0.386	0.775391	0
0.388	0.783203	0
0.39	0.791016	0
0.392	0.798047	0
0.394	0.804297	0
0.396	0.808984	0
0.398	0.812109	0
0.4	0.813281	0
0.402	0.812891	0
0.404	0.810938	0
0.406	0.808203	0
0.408	0.804688	0
0.41	0.801563	0
0.412	0.798828	0
0.414	0.797266	0
0.416	0.796875	0
0.418	0.797656	0
0.42	0.8	0
0.422	0.803906	0
0.424	0.808594	0
0.426	0.813672	0
0.428	0.817969	0
0.43	0.821484	0
0.432	0.823828	0
0.434	0.824219	0
0.436	0.822656	0
0.438	0.819531	0
0.44	0.815234	0
0.442	0.809766	0
0.444	0.803906	0
0.446	0.797266	0
0.448	0.791406	0
0.45	0.785938	0
0.452	0.780078	0
0.454	0.774609	0
0.456	0.769141	0
0.458	0.764063	0
0.46	0.759766	0
0.462	0.756641	0
0.464	0.755078	0
0.466	0.755469	0
0.468	0.757031	0
0.47	0.759766	0
0.472	0.763281	0
0.474	0.767188	0
0.476	0.770313	0
0.478	0.773047	0
0.48	0.775	0
0.482	0.775781	0
0.484	0.775781	0
0.486	0.773828	0
0.488	0.770703	0
0.49	0.766406	0
0.492	0.760156	0
0.494	0.753906	0
0.496	0.747266	0
0.498	0.741406	0
0.5	0.735938	0
0.502	0.731641	0
0.504	0.728906	0
0.506	0.727344	0
0.508	0.726563	0
0.51	0.726953	0
0.512	0.727344	0
0.514	0.727734	0
0.516	0.727344	0
0.518	0.726563	0
0.52	0.725	0
0.522	0.723438	0
0.524	0.723438	0
0.526	0.725781	0
0.528	0.731641	0
0.53	0.742188	0
0.532	0.758594	0
0.534	0.78125	0
0.536	0.810938	0
0.538	0.847266	0
0.54	0.889063	0
0.542	0.937891	0
0.544	0.989453	0
0.546	1.04453	0
0.548	1.09961	0
0.55	1.15234	0
0.552	1.19844	0
0.554	1.23359	0
0.556	1.25352	0
0.558	1.25508	0
0.56	1.23711	0
0.562	1.19961	0
0.564	1.14336	0
0.566	1.07461	0
0.568	0.995312	0
0.57	0.912109	0
0.572	0.829297	0
0.574	0.751953	0
0.576	0.686719	0
0.578	0.637109	0
0.58	0.603906	0
0.582	0.588672	0
0.584	0.591406	0
0.586	0.609766	0
0.588	0.641797	0
0.59	0.682422	0
0.592	0.728516	0
0.594	0.776953	0
0.596	0.822656	0
0.598	0.860547	0
0.6	0.889063	0
0.602	0.907422	0
0.604	0.912891	0
0.606	0.907031	0
0.608	0.889063	0
0.61	0.863281	0
0.612	0.831641	0
0.614	0.795703	0
0.616	0.759375	0
0.618	0.726563	0
0.62	0.698047	0
0.622	0.677734	0
0.624	0.664453	0
0.626	0.659375	0
0.628	0.662109	0
0.63	0.672266	0
0.632	0.688281	0
0.634	0.709766	0
0.636	0.735547	0
0.638	0.762109	0
0.64	0.788281	0
0.642	0.811328	0
0.644	0.829297	0
0.646	0.842578	0
0.648	0.85	0
0.65	0.851563	0
0.652	0.849219	0
0.654	0.842969	0
0.656	0.833984	0
0.658	0.823828	0
0.66	0.813672	0
0.662	0.803125	0
0.664	0.79375	0
0.666	0.787109	0
0.668	0.782813	0
0.67	0.782031	0
0.672	0.784375	0
0.674	0.790234	0
0.676	0.8	0
0.678	0.8125	0
0.68	0.826953	0
0.682	0.843359	0
0.684	0.858984	0
0.686	0.873047	0
0.688	0.887891	0
0.69	0.900391	0
0.692	0.909375	0
0.694	0.914453	0
0.696	0.916406	0
0.698	0.914844	0
0.7	0.910156	0
0.702	0.902734	0
0.704	0.893359	0
0.706	0.883594	0
0.708	0.874609	0
0.71	0.868359	0
0.712	0.864063	0
0.714	0.862891	0
0.716	0.864844	0
0.718	0.869922	0
0.72	0.878516	0
0.722	0.890234	0
0.724	0.903125	0
0.726	0.915625	0
0.728	0.928516	0
0.73	0.939844	0
0.732	0.948828	0
0.734	0.955078	0
0.736	0.957422	0
0.738	0.955469	0
0.74	0.948828	0
0.742	0.939453	0
0.744	0.926953	0
0.746	0.912891	0
0.748	0.898438	0
0.75	0.883984	0
0.752	0.871484	0
0.754	0.862109	0
0.756	0.855078	0
0.758	0.850391	0
0.76	0.847656	0
0.762	0.846875	0
0.764	0.847656	0
0.766	0.848828	0
0.768	0.849609	0
0.77	0.849609	0
0.772	0.848047	0
0.774	0.844922	0
0.776	0.839844	0
0.778	0.833984	0
0.78	0.827734	0
0.782	0.821094	0
0.784	0.815234	0
0.786	0.809375	0
0.788	0.803906	0
0.79	0.799219	0
0.792	0.794141	0
0.794	0.789453	0
0.796	0.785547	0
0.798	0.780859	0
0.8	0.776953	0
0.802	0.773828	0
0.804	0.771094	0
0.806	0.769141	0
0.808	0.76875	0
0.81	0.769531	0
0.812	0.771484	0
0.814	0.774219	0
0.816	0.777734	0
0.818	0.780859	0
0.82	0.783203	0
0.822	0.784375	0
0.824	0.783594	0
0.826	0.781641	0
0.828	0.778125	0
0.83	0.773438	0
0.832	0.767188	0
0.834	0.759766	0
0.836	0.752344	0
0.838	0.745313	0
0.84	0.739453	0
0.842	0.735156	0
0.844	0.733594	0
0.846	0.733984	0
0.848	0.736719	0
0.85	0.741797	0
0.852	0.748047	0
0.854	0.755078	0
0.856	0.7625	0
0.858	0.769141	0
0.86	0.774219	0
0.862	0.776953	0
0.864	0.777734	0
0.866	0.776563	0
0.868	0.773828	0
0.87	0.769141	0
0.872	0.763672	0
0.874	0.757813	0
0.876	0.751953	0
0.878	0.747266	0
0.88	0.74375	0
0.882	0.741797	0
0.884	0.741406	0
0.886	0.742578	0
0.888	0.746094	0
0.89	0.751172	0
0.892	0.757813	0
0.894	0.766016	0
0.896	0.774219	0
0.898	0.782422	0
0.9	0.789453	0
0.902	0.795313	0
0.904	0.798828	0
0.906	0.800391	0
0.908	0.798828	0
0.91	0.794922	0
0.912	0.789453	0
0.914	0.783203	0
0.916	0.776563	0
0.918	0.770313	0
0.92	0.765234	0
0.922	0.761719	0
0.924	0.760156	0
0.926	0.760938	0
0.928	0.764453	0
0.93	0.770313	0
0.932	0.777344	0
0.934	0.786719	0
0.936	0.796875	0
0.938	0.807813	0
0.94	0.817578	0
0.942	0.826563	0
0.944	0.833594	0
0.946	0.839453	0
0.948	0.842578	0
0.95	0.842969	0
0.952	0.841406	0
0.954	0.8375	0
0.956	0.833203	0
0.958	0.828906	0
0.96	0.825	0
0.962	0.821875	0
0.964	0.819141	0
0.966	0.817969	0
0.968	0.817969	0
0.97	0.81875	0
0.972	0.820313	0
0.974	0.821484	0
0.976	0.822656	0
0.978	0.823047	0
0.98	0.821094	0
0.982	0.817969	0
0.984	0.812891	0
0.986	0.80625	0
0.988	0.799219	0
0.99	0.792578	0
0.992	0.7875	0
0.994	0.784375	0
0.996	0.782422	0
0.998	0.781641	0
